C:\Users\Orlando\Documents\Postdoctoral_Work\Data\MC2_XPS_Oct2018\overlay of cu lmm auger peaks.vms
Cu Metal Cu LMM
	Characteristic Energy eV	1486.71	Acquisition Time s	1.5
KE_Cu Metal Cu LMM	BE_Cu Metal Cu LMM	CPS_Cu Metal Cu LMM	Background_Cu Metal Cu LMM
906.71	580	13431.3	13431.3
906.76	579.95	13404	13404
906.81	579.9	13612	13612
906.86	579.85	13645.3	13645.3
906.91	579.8	13689.3	13689.3
906.96	579.75	13703.3	13703.3
907.01	579.7	13740	13740
907.06	579.65	13702	13702
907.11	579.6	13836.7	13836.7
907.16	579.55	13762	13762
907.21	579.5	13661.3	13661.3
907.26	579.45	13794.7	13794.7
907.31	579.4	14016	14016
907.36	579.35	14000.7	14000.7
907.41	579.3	14107.3	14107.3
907.46	579.25	13858	13858
907.51	579.2	14046.7	14046.7
907.56	579.15	14024.7	14024.7
907.61	579.1	14097.3	14097.3
907.66	579.05	14097.3	14097.3
907.71	579	14078.7	14078.7
907.76	578.95	13910.7	13910.7
907.81	578.9	14043.3	14043.3
907.86	578.85	14150.7	14150.7
907.91	578.8	14042	14042
907.96	578.75	14038	14038
908.01	578.7	14009.3	14009.3
908.06	578.65	14212	14212
908.11	578.6	14080	14080
908.16	578.55	14154	14154
908.21	578.5	14083.3	14083.3
908.26	578.45	14108.7	14108.7
908.31	578.4	14165.3	14165.3
908.36	578.35	14228	14228
908.41	578.3	14189.3	14189.3
908.46	578.25	14158	14158
908.51	578.2	14193.3	14193.3
908.56	578.15	14256.7	14256.7
908.61	578.1	14326	14326
908.66	578.05	14209.3	14209.3
908.71	578	14178.7	14178.7
908.76	577.95	14130	14130
908.81	577.9	14236.7	14236.7
908.86	577.85	14430.7	14430.7
908.91	577.8	14558.7	14558.7
908.96	577.75	14418	14418
909.01	577.7	14488	14488
909.06	577.65	14388.7	14388.7
909.11	577.6	14514.7	14514.7
909.16	577.55	14559.3	14559.3
909.21	577.5	14598	14598
909.26	577.45	14506	14506
909.31	577.4	14533.3	14533.3
909.36	577.35	14562.7	14562.7
909.41	577.3	14747.3	14747.3
909.46	577.25	14752	14752
909.51	577.2	14671.3	14671.3
909.56	577.15	14817.3	14817.3
909.61	577.1	14734.7	14734.7
909.66	577.05	14777.3	14777.3
909.71	577	14762	14762
909.76	576.95	14768	14768
909.81	576.9	14559.3	14559.3
909.86	576.85	14684	14684
909.91	576.8	14838.7	14838.7
909.96	576.75	14876	14876
910.01	576.7	14844.7	14844.7
910.06	576.65	14890	14890
910.11	576.6	14916.7	14916.7
910.16	576.55	14713.3	14713.3
910.21	576.5	14867.3	14867.3
910.26	576.45	14824	14824
910.31	576.4	14914	14914
910.36	576.35	14965.3	14965.3
910.41	576.3	15124.7	15124.7
910.46	576.25	15138.7	15138.7
910.51	576.2	15222	15222
910.56	576.15	15376	15376
910.61	576.1	15329.3	15329.3
910.66	576.05	15325.3	15325.3
910.71	576	15358	15358
910.76	575.95	15412	15412
910.81	575.9	15442	15442
910.86	575.85	15574.7	15574.7
910.91	575.8	15506.7	15506.7
910.96	575.75	15595.3	15595.3
911.01	575.7	15543.3	15543.3
911.06	575.65	15583.3	15583.3
911.11	575.6	15649.3	15649.3
911.16	575.55	15490	15490
911.21	575.5	15623.3	15623.3
911.26	575.45	15574.7	15574.7
911.31	575.4	15518.7	15518.7
911.36	575.35	15508.7	15508.7
911.41	575.3	15524.7	15524.7
911.46	575.25	15510	15510
911.51	575.2	15572.7	15572.7
911.56	575.15	15474.7	15474.7
911.61	575.1	15384.7	15384.7
911.66	575.05	15489.3	15489.3
911.71	575	15386.7	15386.7
911.76	574.95	15500	15500
911.81	574.9	15546.7	15546.7
911.86	574.85	15471.3	15471.3
911.91	574.8	15588	15588
911.96	574.75	15622.7	15622.7
912.01	574.7	15596.7	15596.7
912.06	574.65	15756	15756
912.11	574.6	15618	15618
912.16	574.55	15786.7	15786.7
912.21	574.5	15856.7	15856.7
912.26	574.45	16048	16048
912.31	574.4	16254	16254
912.36	574.35	16396	16396
912.41	574.3	16484.7	16484.7
912.46	574.25	16612	16612
912.51	574.2	16794.7	16794.7
912.56	574.15	16932.7	16932.7
912.61	574.1	17086	17086
912.66	574.05	17167.3	17167.3
912.71	574	17181.3	17181.3
912.76	573.95	17359.3	17359.3
912.81	573.9	17520.7	17520.7
912.86	573.85	17605.3	17605.3
912.91	573.8	17846	17846
912.96	573.75	17800.7	17800.7
913.01	573.7	17900.7	17900.7
913.06	573.65	17996.7	17996.7
913.11	573.6	18182.7	18182.7
913.16	573.55	18158	18158
913.21	573.5	18217.3	18217.3
913.26	573.45	18222.7	18222.7
913.31	573.4	18460	18460
913.36	573.35	18753.3	18753.3
913.41	573.3	18712.7	18712.7
913.46	573.25	18810	18810
913.51	573.2	18925.3	18925.3
913.56	573.15	19101.3	19101.3
913.61	573.1	19391.3	19391.3
913.66	573.05	19519.3	19519.3
913.71	573	19692	19692
913.76	572.95	19543.3	19543.3
913.81	572.9	19902.7	19902.7
913.86	572.85	19965.3	19965.3
913.91	572.8	20085.3	20085.3
913.96	572.75	20188.7	20188.7
914.01	572.7	20172	20172
914.06	572.65	20176.7	20176.7
914.11	572.6	20317.3	20317.3
914.16	572.55	20194	20194
914.21	572.5	20396	20396
914.26	572.45	20252.7	20252.7
914.31	572.4	20141.3	20141.3
914.36	572.35	20323.3	20323.3
914.41	572.3	20276	20276
914.46	572.25	20205.3	20205.3
914.51	572.2	20309.3	20309.3
914.56	572.15	20316.7	20316.7
914.61	572.1	20019.3	20019.3
914.66	572.05	19915.3	19915.3
914.71	572	19740.7	19740.7
914.76	571.95	19632	19632
914.81	571.9	19386	19386
914.86	571.85	19378.7	19378.7
914.91	571.8	19142	19142
914.96	571.75	19031.3	19031.3
915.01	571.7	18740.7	18740.7
915.06	571.65	18878	18878
915.11	571.6	18898.7	18898.7
915.16	571.55	18841.3	18841.3
915.21	571.5	18724	18724
915.26	571.45	18740	18740
915.31	571.4	18805.3	18805.3
915.36	571.35	18914.7	18914.7
915.41	571.3	19100.7	19100.7
915.46	571.25	19054	19054
915.51	571.2	19252	19252
915.56	571.15	19571.3	19571.3
915.61	571.1	19632	19632
915.66	571.05	19904	19904
915.71	571	20357.3	20357.3
915.76	570.95	20536.7	20536.7
915.81	570.9	20638	20638
915.86	570.85	20892	20892
915.91	570.8	21280	21280
915.96	570.75	21380.7	21380.7
916.01	570.7	21440	21440
916.06	570.65	21570	21570
916.11	570.6	21847.3	21847.3
916.16	570.55	22068.7	22068.7
916.21	570.5	21992.7	21992.7
916.26	570.45	22000.7	22000.7
916.31	570.4	21854	21854
916.36	570.35	21837.3	21837.3
916.41	570.3	21666.7	21666.7
916.46	570.25	21476	21476
916.51	570.2	21411.3	21411.3
916.56	570.15	21256.7	21256.7
916.61	570.1	21108.7	21108.7
916.66	570.05	21182	21182
916.71	570	21038	21038
916.76	569.95	20790.7	20790.7
916.81	569.9	20829.3	20829.3
916.86	569.85	20798.7	20798.7
916.91	569.8	20805.3	20805.3
916.96	569.75	20829.3	20829.3
917.01	569.7	20732.7	20732.7
917.06	569.65	20968.7	20968.7
917.11	569.6	21168	21168
917.16	569.55	21460.7	21460.7
917.21	569.5	21618	21618
917.26	569.45	21742	21742
917.31	569.4	21751.3	21751.3
917.36	569.35	21916	21916
917.41	569.3	22256	22256
917.46	569.25	22350	22350
917.51	569.2	22600	22600
917.56	569.15	22983.3	22983.3
917.61	569.1	23498.7	23498.7
917.66	569.05	23902	23902
917.71	569	24446.7	24446.7
917.76	568.95	25080.7	25080.7
917.81	568.9	25886.7	25886.7
917.86	568.85	26670.7	26670.7
917.91	568.8	27716	27716
917.96	568.75	28897.3	28897.3
918.01	568.7	30111.3	30111.3
918.06	568.65	31512.7	31512.7
918.11	568.6	32956	32956
918.16	568.55	34786.7	34786.7
918.21	568.5	36592.7	36592.7
918.26	568.45	38532	38532
918.31	568.4	40343.3	40343.3
918.36	568.35	42286.7	42286.7
918.41	568.3	44248.7	44248.7
918.46	568.25	45708	45708
918.51	568.2	47074.7	47074.7
918.56	568.15	48290.7	48290.7
918.61	568.1	48600	48600
918.66	568.05	48534.7	48534.7
918.71	568	47914.7	47914.7
918.76	567.95	46934	46934
918.81	567.9	45111.3	45111.3
918.86	567.85	42792.7	42792.7
918.91	567.8	40574.7	40574.7
918.96	567.75	38184	38184
919.01	567.7	36057.3	36057.3
919.06	567.65	34234	34234
919.11	567.6	32055.3	32055.3
919.16	567.55	30331.3	30331.3
919.21	567.5	28920.7	28920.7
919.26	567.45	27567.3	27567.3
919.31	567.4	26493.3	26493.3
919.36	567.35	25602	25602
919.41	567.3	24861.3	24861.3
919.46	567.25	24124	24124
919.51	567.2	23789.3	23789.3
919.56	567.15	23315.3	23315.3
919.61	567.1	22795.3	22795.3
919.66	567.05	22232.7	22232.7
919.71	567	21826.7	21826.7
919.76	566.95	21424	21424
919.81	566.9	20954.7	20954.7
919.86	566.85	20565.3	20565.3
919.91	566.8	19778	19778
919.96	566.75	19162	19162
920.01	566.7	18480	18480
920.06	566.65	17922.7	17922.7
920.11	566.6	17336.7	17336.7
920.16	566.55	16851.3	16851.3
920.21	566.5	16410.7	16410.7
920.26	566.45	15889.3	15889.3
920.31	566.4	15585.3	15585.3
920.36	566.35	15118.7	15118.7
920.41	566.3	15005.3	15005.3
920.46	566.25	14883.3	14883.3
920.51	566.2	14650	14650
920.56	566.15	14575.3	14575.3
920.61	566.1	14642	14642
920.66	566.05	14864.7	14864.7
920.71	566	14873.3	14873.3
920.76	565.95	14973.3	14973.3
920.81	565.9	15280	15280
920.86	565.85	15494.7	15494.7
920.91	565.8	15878	15878
920.96	565.75	16280	16280
921.01	565.7	16618.7	16618.7
921.06	565.65	16970	16970
921.11	565.6	17176.7	17176.7
921.16	565.55	17608.7	17608.7
921.21	565.5	17752	17752
921.26	565.45	18010	18010
921.31	565.4	18069.3	18069.3
921.36	565.35	18060.7	18060.7
921.41	565.3	17941.3	17941.3
921.46	565.25	17762.7	17762.7
921.51	565.2	17624.7	17624.7
921.56	565.15	17132.7	17132.7
921.61	565.1	16686.7	16686.7
921.66	565.05	16196	16196
921.71	565	15679.3	15679.3
921.76	564.95	15087.3	15087.3
921.81	564.9	14593.3	14593.3
921.86	564.85	13903.3	13903.3
921.91	564.8	13234.7	13234.7
921.96	564.75	12802	12802
922.01	564.7	12266	12266
922.06	564.65	11706	11706
922.11	564.6	11384.7	11384.7
922.16	564.55	11070.7	11070.7
922.21	564.5	10734.7	10734.7
922.26	564.45	10395.3	10395.3
922.31	564.4	10136	10136
922.36	564.35	9878	9878
922.41	564.3	9678	9678
922.46	564.25	9436	9436
922.51	564.2	9368	9368
922.56	564.15	9252	9252
922.61	564.1	9005.33	9005.33
922.66	564.05	8947.33	8947.33
922.71	564	8868	8868
922.76	563.95	8756	8756
922.81	563.9	8694	8694
922.86	563.85	8650.67	8650.67
922.91	563.8	8429.33	8429.33
922.96	563.75	8323.33	8323.33
923.01	563.7	8323.33	8323.33
923.06	563.65	8434.67	8434.67
923.11	563.6	8320	8320
923.16	563.55	8267.33	8267.33
923.21	563.5	8071.33	8071.33
923.26	563.45	8104	8104
923.31	563.4	8152.67	8152.67
923.36	563.35	8098	8098
923.41	563.3	8061.33	8061.33
923.46	563.25	7966.67	7966.67
923.51	563.2	7842	7842
923.56	563.15	7885.33	7885.33
923.61	563.1	7797.33	7797.33
923.66	563.05	7893.33	7893.33
923.71	563	7866.67	7866.67
923.76	562.95	7894	7894
923.81	562.9	7916.67	7916.67
923.86	562.85	7918.67	7918.67
923.91	562.8	7751.33	7751.33
923.96	562.75	7773.33	7773.33
924.01	562.7	7816.67	7816.67
924.06	562.65	7816	7816
924.11	562.6	7812.67	7812.67
924.16	562.55	7828.67	7828.67
924.21	562.5	7776.67	7776.67
924.26	562.45	7788.67	7788.67
924.31	562.4	7613.33	7613.33
924.36	562.35	7637.33	7637.33
924.41	562.3	7654.67	7654.67
924.46	562.25	7569.33	7569.33
924.51	562.2	7731.33	7731.33
924.56	562.15	7736.67	7736.67
924.61	562.1	7650	7650
924.66	562.05	7668	7668
924.71	562	7606.67	7606.67
924.76	561.95	7660.67	7660.67
924.81	561.9	7674.67	7674.67
924.86	561.85	7637.33	7637.33
924.91	561.8	7513.33	7513.33
924.96	561.75	7566	7566
925.01	561.7	7581.33	7581.33
925.06	561.65	7526.67	7526.67
925.11	561.6	7553.33	7553.33
925.16	561.55	7502.67	7502.67
925.21	561.5	7482	7482
925.26	561.45	7604.67	7604.67
925.31	561.4	7527.33	7527.33
925.36	561.35	7482.67	7482.67
925.41	561.3	7494	7494
925.46	561.25	7507.33	7507.33
925.51	561.2	7467.33	7467.33
925.56	561.15	7515.33	7515.33
925.61	561.1	7496.67	7496.67
925.66	561.05	7533.33	7533.33
925.71	561	7504.67	7504.67
925.76	560.95	7390.67	7390.67
925.81	560.9	7470.67	7470.67
925.86	560.85	7472	7472
925.91	560.8	7382	7382
925.96	560.75	7470	7470
926.01	560.7	7496.67	7496.67
926.06	560.65	7488.67	7488.67
926.11	560.6	7277.33	7277.33
926.16	560.55	7382	7382
926.21	560.5	7418.67	7418.67
926.26	560.45	7355.33	7355.33
926.31	560.4	7333.33	7333.33
926.36	560.35	7286	7286
926.41	560.3	7272	7272
926.46	560.25	7312.67	7312.67
926.51	560.2	7351.33	7351.33
926.56	560.15	7313.33	7313.33
926.61	560.1	7310	7310
926.66	560.05	7335.33	7335.33
926.71	560	7264.67	7264.67