C:\Users\Orlando\Documents\Postdoctoral_Work\Data\MC2_XPS_Oct2018\overlay of cu lmm auger peaks.vms
CuO Cu LMM
	Characteristic Energy eV	1486.71	Acquisition Time s	7.5
KE_CuO Cu LMM	BE_CuO Cu LMM	CPS_CuO Cu LMM	Background_CuO Cu LMM
904.18	582.53	2230.13	2230.13
904.28	582.43	2224.4	2224.4
904.38	582.33	2197.6	2197.6
904.48	582.23	2234.13	2234.13
904.58	582.13	2211.47	2211.47
904.68	582.03	2232.93	2232.93
904.78	581.93	2195.47	2195.47
904.88	581.83	2223.33	2223.33
904.98	581.73	2223.6	2223.6
905.08	581.63	2267.2	2267.2
905.18	581.53	2262.53	2262.53
905.28	581.43	2251.2	2251.2
905.38	581.33	2268.93	2268.93
905.48	581.23	2223.47	2223.47
905.58	581.13	2274.4	2274.4
905.68	581.03	2257.2	2257.2
905.78	580.93	2256.4	2256.4
905.88	580.83	2242.53	2242.53
905.98	580.73	2278.53	2278.53
906.08	580.63	2258.53	2258.53
906.18	580.53	2246.53	2246.53
906.28	580.43	2262.4	2262.4
906.38	580.33	2281.2	2281.2
906.48	580.23	2252.67	2252.67
906.58	580.13	2270.8	2270.8
906.68	580.03	2260	2260
906.78	579.93	2294.8	2294.8
906.88	579.83	2322.8	2322.8
906.98	579.73	2334.27	2334.27
907.08	579.63	2324.53	2324.53
907.18	579.53	2316	2316
907.28	579.43	2293.2	2293.2
907.38	579.33	2336.8	2336.8
907.48	579.23	2325.47	2325.47
907.58	579.13	2327.87	2327.87
907.68	579.03	2336.67	2336.67
907.78	578.93	2325.6	2325.6
907.88	578.83	2344.8	2344.8
907.98	578.73	2340.13	2340.13
908.08	578.63	2352.67	2352.67
908.18	578.53	2355.07	2355.07
908.28	578.43	2339.73	2339.73
908.38	578.33	2354.67	2354.67
908.48	578.23	2352	2352
908.58	578.13	2351.73	2351.73
908.68	578.03	2375.2	2375.2
908.78	577.93	2372.53	2372.53
908.88	577.83	2400.8	2400.8
908.98	577.73	2403.87	2403.87
909.08	577.63	2402.93	2402.93
909.18	577.53	2383.6	2383.6
909.28	577.43	2421.73	2421.73
909.38	577.33	2392.8	2392.8
909.48	577.23	2412.67	2412.67
909.58	577.13	2452.4	2452.4
909.68	577.03	2453.73	2453.73
909.78	576.93	2476.8	2476.8
909.88	576.83	2475.87	2475.87
909.98	576.73	2510.53	2510.53
910.08	576.63	2529.73	2529.73
910.18	576.53	2522.53	2522.53
910.28	576.43	2548.67	2548.67
910.38	576.33	2557.07	2557.07
910.48	576.23	2580.93	2580.93
910.58	576.13	2585.6	2585.6
910.68	576.03	2633.2	2633.2
910.78	575.93	2634.4	2634.4
910.88	575.83	2656.4	2656.4
910.98	575.73	2683.33	2683.33
911.08	575.63	2671.07	2671.07
911.18	575.53	2706.8	2706.8
911.28	575.43	2722.4	2722.4
911.38	575.33	2739.07	2739.07
911.48	575.23	2764	2764
911.58	575.13	2777.87	2777.87
911.68	575.03	2820.8	2820.8
911.78	574.93	2809.6	2809.6
911.88	574.83	2838	2838
911.98	574.73	2823.87	2823.87
912.08	574.63	2850.93	2850.93
912.18	574.53	2838.13	2838.13
912.28	574.43	2850.93	2850.93
912.38	574.33	2859.6	2859.6
912.48	574.23	2847.07	2847.07
912.58	574.13	2838.27	2838.27
912.68	574.03	2851.6	2851.6
912.78	573.93	2859.33	2859.33
912.88	573.83	2874.67	2874.67
912.98	573.73	2892.27	2892.27
913.08	573.63	2926.13	2926.13
913.18	573.53	2933.6	2933.6
913.28	573.43	2902.4	2902.4
913.38	573.33	2919.47	2919.47
913.48	573.23	2983.07	2983.07
913.58	573.13	2978.4	2978.4
913.68	573.03	2958.67	2958.67
913.78	572.93	2943.2	2943.2
913.88	572.83	3009.2	3009.2
913.98	572.73	2941.47	2941.47
914.08	572.63	2982.13	2982.13
914.18	572.53	2986.53	2986.53
914.28	572.43	2966.67	2966.67
914.38	572.33	2986	2986
914.48	572.23	2931.07	2931.07
914.58	572.13	2907.87	2907.87
914.68	572.03	2901.87	2901.87
914.78	571.93	2897.07	2897.07
914.88	571.83	2901.47	2901.47
914.98	571.73	2870.67	2870.67
915.08	571.63	2859.73	2859.73
915.18	571.53	2848.4	2848.4
915.28	571.43	2862.93	2862.93
915.38	571.33	2838.93	2838.93
915.48	571.23	2845.07	2845.07
915.58	571.13	2842.93	2842.93
915.68	571.03	2873.73	2873.73
915.78	570.93	2872.93	2872.93
915.88	570.83	2889.87	2889.87
915.98	570.73	2963.33	2963.33
916.08	570.63	2993.2	2993.2
916.18	570.53	3001.33	3001.33
916.28	570.43	3080.93	3080.93
916.38	570.33	3160.67	3160.67
916.48	570.23	3215.87	3215.87
916.58	570.13	3312	3312
916.68	570.03	3408.4	3408.4
916.78	569.93	3469.73	3469.73
916.88	569.83	3616.27	3616.27
916.98	569.73	3728.27	3728.27
917.08	569.63	3878.27	3878.27
917.18	569.53	3982.93	3982.93
917.28	569.43	4070.93	4070.93
917.38	569.33	4206.53	4206.53
917.48	569.23	4309.73	4309.73
917.58	569.13	4370	4370
917.68	569.03	4483.73	4483.73
917.78	568.93	4546.13	4546.13
917.88	568.83	4533.6	4533.6
917.98	568.73	4513.2	4513.2
918.08	568.63	4496.27	4496.27
918.18	568.53	4432.67	4432.67
918.28	568.43	4279.07	4279.07
918.38	568.33	4189.87	4189.87
918.48	568.23	4066.4	4066.4
918.58	568.13	3925.07	3925.07
918.68	568.03	3799.07	3799.07
918.78	567.93	3709.6	3709.6
918.88	567.83	3541.33	3541.33
918.98	567.73	3408.4	3408.4
919.08	567.63	3334.13	3334.13
919.18	567.53	3206.53	3206.53
919.28	567.43	3167.07	3167.07
919.38	567.33	3056.67	3056.67
919.48	567.23	2965.07	2965.07
919.58	567.13	2920.93	2920.93
919.68	567.03	2858.4	2858.4
919.78	566.93	2820	2820
919.88	566.83	2766.27	2766.27
919.98	566.73	2714.93	2714.93
920.08	566.63	2694.4	2694.4
920.18	566.53	2653.87	2653.87
920.28	566.43	2620.8	2620.8
920.38	566.33	2601.87	2601.87
920.48	566.23	2574.4	2574.4
920.58	566.13	2535.07	2535.07
920.68	566.03	2501.87	2501.87
920.78	565.93	2478.27	2478.27
920.88	565.83	2426.13	2426.13
920.98	565.73	2400.8	2400.8
921.08	565.63	2364.13	2364.13
921.18	565.53	2309.87	2309.87
921.28	565.43	2267.73	2267.73
921.38	565.33	2231.2	2231.2
921.48	565.23	2206.93	2206.93
921.58	565.13	2182.93	2182.93
921.68	565.03	2147.73	2147.73
921.78	564.93	2106.8	2106.8
921.88	564.83	2102	2102
921.98	564.73	2078	2078
922.08	564.63	2064.67	2064.67
922.18	564.53	2035.07	2035.07
922.28	564.43	2015.47	2015.47
922.38	564.33	1970.53	1970.53
922.48	564.23	2001.73	2001.73
922.58	564.13	1974.8	1974.8
922.68	564.03	1948.8	1948.8
922.78	563.93	1918.27	1918.27
922.88	563.83	1910.4	1910.4
922.98	563.73	1912.27	1912.27
923.08	563.63	1879.73	1879.73
923.18	563.53	1871.2	1871.2
923.28	563.43	1861.07	1861.07
923.38	563.33	1820.8	1820.8
923.48	563.23	1834.4	1834.4
923.58	563.13	1811.47	1811.47
923.68	563.03	1810.4	1810.4
923.78	562.93	1788.93	1788.93
923.88	562.83	1784	1784
923.98	562.73	1753.2	1753.2
924.08	562.63	1758.93	1758.93
924.18	562.53	1767.87	1767.87